#   Angle      Pi(1keV)  Pi(2keV)   Pi(5keV)  Pi(10keV)  Pi(15keV)  Pi(30keV)
  0.000000   0.000000   0.000000   0.000000   0.000000   0.000000   0.000000
  1.000000   0.001102  -0.002800   0.001069   0.000245   0.001535   0.002467
  2.000000   0.002204  -0.005600   0.002137   0.000490   0.003070   0.004934
  3.000000   0.003306  -0.008401   0.003206   0.000735   0.004605   0.007401
  4.000000   0.004408  -0.011201   0.004274   0.000981   0.006139   0.009868
  5.000000   0.007470  -0.014001   0.005343   0.001226   0.007674   0.012335
  6.000000   0.032024  -0.016801   0.002627   0.001471   0.009209   0.014802
  7.000000   0.056578  -0.015525  -0.000994   0.001716   0.010284   0.017425
  8.000000   0.081133  -0.013418  -0.004615   0.001961   0.009288   0.020063
  9.000000   0.105687  -0.011311  -0.008236  -0.000189   0.008292   0.022702
 10.000000   0.130241  -0.009204  -0.011857  -0.003428   0.007296   0.025340
 11.000000   0.172036  -0.007097  -0.015478  -0.006666   0.006300   0.027979
 12.000000   0.220683  -0.004990  -0.019099  -0.009904   0.005304   0.030617
 13.000000   0.273896  -0.002884  -0.025066  -0.013142   0.004309   0.033256
 14.000000   0.327710   0.007757  -0.048095  -0.016380   0.003313   0.035894
 15.000000   0.385801   0.031950  -0.071124  -0.019618   0.002317   0.038005
 16.000000   0.448809   0.056143  -0.094153  -0.022867  -0.005496   0.039428
 17.000000   0.515916   0.080337  -0.117182  -0.040000  -0.015966   0.040851
 18.000000   0.560939   0.104530  -0.133378  -0.057134  -0.026435   0.042275
 19.000000   0.605962   0.128724  -0.148993  -0.074267  -0.036905   0.043698
 20.000000   0.643782   0.152917  -0.164608  -0.091401  -0.047374   0.045122
 21.000000   0.680129   0.177110  -0.180223  -0.108534  -0.057844   0.046545
 22.000000   0.715180   0.209938  -0.195838  -0.129367  -0.070305   0.047969
 23.000000   0.738910   0.247916  -0.211453  -0.152231  -0.090645   0.049392
 24.000000   0.762639   0.285738  -0.220150  -0.175096  -0.110984   0.043440
 25.000000   0.786369   0.323173  -0.219106  -0.197961  -0.131324   0.037226
 26.000000   0.807554   0.360608  -0.218062  -0.221501  -0.151663   0.031011
 27.000000   0.819893   0.396495  -0.217018  -0.245182  -0.176155   0.024796
 28.000000   0.832231   0.432299  -0.215974  -0.268863  -0.200652   0.018582
 29.000000   0.844570   0.465725  -0.214930  -0.292514  -0.225149   0.012367
 30.000000   0.856909   0.497638  -0.213886  -0.313470  -0.249908   0.006153
 31.000000   0.869248   0.529550  -0.212842  -0.334427  -0.275835  -0.000062
 32.000000   0.881587   0.555415  -0.201622  -0.355383  -0.301762  -0.010767
 33.000000   0.889342   0.580516  -0.186385  -0.376340  -0.327688  -0.025640
 34.000000   0.894677   0.605616  -0.171147  -0.391078  -0.352862  -0.040513
 35.000000   0.900012   0.628787  -0.155910  -0.404343  -0.376746  -0.055386
 36.000000   0.905347   0.648996  -0.140672  -0.417609  -0.400631  -0.070259
 37.000000   0.910681   0.669205  -0.125435  -0.430875  -0.424516  -0.085132
 38.000000   0.916016   0.689414  -0.101789  -0.444140  -0.445543  -0.103527
 39.000000   0.921351   0.708832  -0.077362  -0.457406  -0.464257  -0.124421
 40.000000   0.926685   0.723067  -0.052934  -0.467644  -0.482972  -0.145316
 41.000000   0.932020   0.737301  -0.028506  -0.470717  -0.501686  -0.166211
 42.000000   0.937355   0.751536  -0.007195  -0.473790  -0.520400  -0.187106
 43.000000   0.942690   0.765771   0.009701  -0.476863  -0.533749  -0.208275
 44.000000   0.948024   0.780005   0.026597  -0.479935  -0.546903  -0.229509
 45.000000   0.953359   0.794240   0.043492  -0.483008  -0.560057  -0.250744
 46.000000   0.958694   0.802950   0.060388  -0.486081  -0.573211  -0.271978
 47.000000   0.964028   0.811343   0.077284  -0.489154  -0.586365  -0.293120
 48.000000   0.969363   0.819736   0.098253  -0.492227  -0.599519  -0.314262
 49.000000   0.974698   0.828130   0.119994  -0.490590  -0.612232  -0.335404
 50.000000   0.980033   0.836523   0.141736  -0.488062  -0.619092  -0.356545
 51.000000   0.980701   0.844916   0.163477  -0.485534  -0.625953  -0.375734
 52.000000   0.980974   0.853309   0.183643  -0.483006  -0.632813  -0.394396
 53.000000   0.981248   0.861702   0.203750  -0.480477  -0.639674  -0.413058
 54.000000   0.981522   0.869044   0.223857  -0.477949  -0.646534  -0.431720
 55.000000   0.981796   0.876189   0.243964  -0.475421  -0.653395  -0.449889
 56.000000   0.982069   0.883334   0.262980  -0.472893  -0.660255  -0.466082
 57.000000   0.982343   0.890479   0.280302  -0.469770  -0.667115  -0.482274
 58.000000   0.982617   0.897624   0.297624  -0.465628  -0.671298  -0.498467
 59.000000   0.983244   0.904769   0.314946  -0.461486  -0.673872  -0.514660
 60.000000   0.984293   0.911914   0.332268  -0.457344  -0.676446  -0.530853
 61.000000   0.985342   0.919059   0.348823  -0.453202  -0.679020  -0.543199
 62.000000   0.986392   0.921940   0.363428  -0.449060  -0.681594  -0.554827
 63.000000   0.987441   0.924080   0.378034  -0.444917  -0.684168  -0.566454
 64.000000   0.988490   0.926221   0.392639  -0.440775  -0.686742  -0.578082
 65.000000   0.989539   0.928361   0.407245  -0.436633  -0.689316  -0.589710
 66.000000   0.990588   0.930501   0.421850  -0.432565  -0.691612  -0.601337
 67.000000   0.990842   0.932642   0.436078  -0.428505  -0.692525  -0.612965
 68.000000   0.990842   0.934782   0.446706  -0.424446  -0.693438  -0.622153
 69.000000   0.990842   0.936923   0.457334  -0.420386  -0.694351  -0.629430
 70.000000   0.990842   0.939063   0.467962  -0.416327  -0.695264  -0.636707
 71.000000   0.990842   0.940918   0.478590  -0.412267  -0.696177  -0.643984
 72.000000   0.990842   0.942735   0.489218  -0.408208  -0.697090  -0.651262
 73.000000   0.990842   0.944552   0.499846  -0.404149  -0.698002  -0.658539
 74.000000   0.990842   0.946370   0.510474  -0.400523  -0.698915  -0.665816
 75.000000   0.990842   0.948187   0.519600  -0.397512  -0.699331  -0.673093
 76.000000   0.990842   0.950005   0.526180  -0.394501  -0.699538  -0.680106
 77.000000   0.990842   0.951822   0.532761  -0.391490  -0.699746  -0.685120
 78.000000   0.990842   0.953639   0.539341  -0.388479  -0.699953  -0.690134
 79.000000   0.990842   0.955128   0.545922  -0.385468  -0.700161  -0.695148
 80.000000   0.990842   0.956153   0.552502  -0.382457  -0.700368  -0.700162
 81.000000   0.990842   0.957178   0.559083  -0.379445  -0.700575  -0.705176
 82.000000   0.990842   0.958203   0.565663  -0.376434  -0.700783  -0.710190
 83.000000   0.990842   0.959228   0.572244  -0.376713  -0.700940  -0.715204
 84.000000   0.990842   0.960253   0.577076  -0.377200  -0.700940  -0.720218
 85.000000   0.990842   0.961278   0.581686  -0.377686  -0.700940  -0.724392
 86.000000   0.990842   0.962303   0.586296  -0.378173  -0.700940  -0.728144
 87.000000   0.990842   0.962988   0.590905  -0.378660  -0.700940  -0.731896
 88.000000   0.990842   0.962988   0.595515  -0.379064  -0.700940  -0.735648
 89.000000   0.990842   0.962988   0.600125  -0.379064  -0.700940  -0.739401
 90.000000   0.990842   0.962988   0.602935  -0.379064  -0.700940  -0.742656
